#  E (eV)   dos(E)     Int dos(E) EFermi =    2.033 eV
 -11.423  0.0000E+00  0.0000E+00
 -11.413  0.7603E+00  0.4736E-02
 -11.403  0.1123E+01  0.1436E-01
 -11.393  0.1414E+01  0.2719E-01
 -11.383  0.1678E+01  0.4272E-01
 -11.373  0.1916E+01  0.6067E-01
 -11.363  0.2137E+01  0.8097E-01
 -11.353  0.2370E+01  0.1035E+00
 -11.343  0.2581E+01  0.1282E+00
 -11.333  0.2807E+01  0.1552E+00
 -11.323  0.3030E+01  0.1844E+00
 -11.313  0.3265E+01  0.2158E+00
 -11.303  0.3507E+01  0.2497E+00
 -11.293  0.3765E+01  0.2860E+00
 -11.283  0.4045E+01  0.3251E+00
 -11.273  0.4348E+01  0.3670E+00
 -11.263  0.4697E+01  0.4122E+00
 -11.253  0.5114E+01  0.4611E+00
 -11.243  0.5614E+01  0.5147E+00
 -11.233  0.6559E+01  0.5750E+00
 -11.223  0.7182E+01  0.6467E+00
 -11.213  0.7063E+01  0.7180E+00
 -11.203  0.6925E+01  0.7880E+00
 -11.193  0.6793E+01  0.8567E+00
 -11.183  0.6677E+01  0.9240E+00
 -11.173  0.6532E+01  0.9900E+00
 -11.163  0.6396E+01  0.1055E+01
 -11.153  0.6263E+01  0.1118E+01
 -11.143  0.6120E+01  0.1180E+01
 -11.133  0.5984E+01  0.1240E+01
 -11.123  0.5837E+01  0.1300E+01
 -11.113  0.5691E+01  0.1357E+01
 -11.103  0.5540E+01  0.1413E+01
 -11.093  0.5380E+01  0.1468E+01
 -11.083  0.5218E+01  0.1521E+01
 -11.073  0.5044E+01  0.1572E+01
 -11.063  0.4864E+01  0.1622E+01
 -11.053  0.4683E+01  0.1670E+01
 -11.043  0.4470E+01  0.1715E+01
 -11.033  0.4288E+01  0.1759E+01
 -11.023  0.4021E+01  0.1801E+01
 -11.013  0.3516E+01  0.1839E+01
 -11.003  0.2885E+01  0.1871E+01
 -10.993  0.2469E+01  0.1898E+01
 -10.983  0.2134E+01  0.1921E+01
 -10.973  0.1841E+01  0.1940E+01
 -10.963  0.1569E+01  0.1957E+01
 -10.953  0.1303E+01  0.1972E+01
 -10.943  0.1043E+01  0.1983E+01
 -10.933  0.7773E+00  0.1993E+01
 -10.923  0.4068E+00  0.1999E+01
 -10.913  0.4778E+02  0.2524E+01
 -10.903  0.3012E+02  0.2907E+01
 -10.893  0.2453E+02  0.3184E+01
 -10.883  0.2225E+02  0.3417E+01
 -10.873  0.2042E+02  0.3629E+01
 -10.863  0.1938E+02  0.3827E+01
 -10.853  0.1825E+02  0.4016E+01
 -10.843  0.1803E+02  0.4198E+01
 -10.833  0.1759E+02  0.4377E+01
 -10.823  0.1755E+02  0.4553E+01
 -10.813  0.1742E+02  0.4728E+01
 -10.803  0.1762E+02  0.4903E+01
 -10.793  0.1764E+02  0.5078E+01
 -10.783  0.1767E+02  0.5256E+01
 -10.773  0.1822E+02  0.5437E+01
 -10.763  0.1859E+02  0.5621E+01
 -10.753  0.1920E+02  0.5812E+01
 -10.743  0.5380E+01  0.5998E+01
 -10.733  0.0000E+00  0.6000E+01
 -10.723  0.0000E+00  0.6000E+01
 -10.713  0.0000E+00  0.6000E+01
 -10.703  0.0000E+00  0.6000E+01
 -10.693  0.0000E+00  0.6000E+01
 -10.683  0.0000E+00  0.6000E+01
 -10.673  0.0000E+00  0.6000E+01
 -10.663  0.0000E+00  0.6000E+01
 -10.653  0.0000E+00  0.6000E+01
 -10.643  0.0000E+00  0.6000E+01
 -10.633  0.0000E+00  0.6000E+01
 -10.623  0.0000E+00  0.6000E+01
 -10.613  0.0000E+00  0.6000E+01
 -10.603  0.0000E+00  0.6000E+01
 -10.593  0.0000E+00  0.6000E+01
 -10.583  0.0000E+00  0.6000E+01
 -10.573  0.0000E+00  0.6000E+01
 -10.563  0.0000E+00  0.6000E+01
 -10.553  0.0000E+00  0.6000E+01
 -10.543  0.0000E+00  0.6000E+01
 -10.533  0.0000E+00  0.6000E+01
 -10.523  0.0000E+00  0.6000E+01
 -10.513  0.0000E+00  0.6000E+01
 -10.503  0.0000E+00  0.6000E+01
 -10.493  0.0000E+00  0.6000E+01
 -10.483  0.0000E+00  0.6000E+01
 -10.473  0.0000E+00  0.6000E+01
 -10.463  0.0000E+00  0.6000E+01
 -10.453  0.0000E+00  0.6000E+01
 -10.443  0.0000E+00  0.6000E+01
 -10.433  0.0000E+00  0.6000E+01
 -10.423  0.0000E+00  0.6000E+01
 -10.413  0.0000E+00  0.6000E+01
 -10.403  0.0000E+00  0.6000E+01
 -10.393  0.0000E+00  0.6000E+01
 -10.383  0.0000E+00  0.6000E+01
 -10.373  0.0000E+00  0.6000E+01
 -10.363  0.0000E+00  0.6000E+01
 -10.353  0.0000E+00  0.6000E+01
 -10.343  0.0000E+00  0.6000E+01
 -10.333  0.0000E+00  0.6000E+01
 -10.323  0.0000E+00  0.6000E+01
 -10.313  0.0000E+00  0.6000E+01
 -10.303  0.0000E+00  0.6000E+01
 -10.293  0.0000E+00  0.6000E+01
 -10.283  0.0000E+00  0.6000E+01
 -10.273  0.0000E+00  0.6000E+01
 -10.263  0.0000E+00  0.6000E+01
 -10.253  0.0000E+00  0.6000E+01
 -10.243  0.0000E+00  0.6000E+01
 -10.233  0.0000E+00  0.6000E+01
 -10.223  0.0000E+00  0.6000E+01
 -10.213  0.0000E+00  0.6000E+01
 -10.203  0.0000E+00  0.6000E+01
 -10.193  0.0000E+00  0.6000E+01
 -10.183  0.0000E+00  0.6000E+01
 -10.173  0.0000E+00  0.6000E+01
 -10.163  0.0000E+00  0.6000E+01
 -10.153  0.0000E+00  0.6000E+01
 -10.143  0.0000E+00  0.6000E+01
 -10.133  0.0000E+00  0.6000E+01
 -10.123  0.0000E+00  0.6000E+01
 -10.113  0.0000E+00  0.6000E+01
 -10.103  0.0000E+00  0.6000E+01
 -10.093  0.0000E+00  0.6000E+01
 -10.083  0.0000E+00  0.6000E+01
 -10.073  0.0000E+00  0.6000E+01
 -10.063  0.0000E+00  0.6000E+01
 -10.053  0.0000E+00  0.6000E+01
 -10.043  0.0000E+00  0.6000E+01
 -10.033  0.0000E+00  0.6000E+01
 -10.023  0.0000E+00  0.6000E+01
 -10.013  0.0000E+00  0.6000E+01
 -10.003  0.0000E+00  0.6000E+01
  -9.993  0.0000E+00  0.6000E+01
  -9.983  0.0000E+00  0.6000E+01
  -9.973  0.0000E+00  0.6000E+01
  -9.963  0.0000E+00  0.6000E+01
  -9.953  0.0000E+00  0.6000E+01
  -9.943  0.0000E+00  0.6000E+01
  -9.933  0.0000E+00  0.6000E+01
  -9.923  0.0000E+00  0.6000E+01
  -9.913  0.0000E+00  0.6000E+01
  -9.903  0.0000E+00  0.6000E+01
  -9.893  0.0000E+00  0.6000E+01
  -9.883  0.0000E+00  0.6000E+01
  -9.873  0.0000E+00  0.6000E+01
  -9.863  0.0000E+00  0.6000E+01
  -9.853  0.0000E+00  0.6000E+01
  -9.843  0.0000E+00  0.6000E+01
  -9.833  0.0000E+00  0.6000E+01
  -9.823  0.0000E+00  0.6000E+01
  -9.813  0.0000E+00  0.6000E+01
  -9.803  0.0000E+00  0.6000E+01
  -9.793  0.0000E+00  0.6000E+01
  -9.783  0.0000E+00  0.6000E+01
  -9.773  0.0000E+00  0.6000E+01
  -9.763  0.0000E+00  0.6000E+01
  -9.753  0.0000E+00  0.6000E+01
  -9.743  0.0000E+00  0.6000E+01
  -9.733  0.0000E+00  0.6000E+01
  -9.723  0.0000E+00  0.6000E+01
  -9.713  0.0000E+00  0.6000E+01
  -9.703  0.0000E+00  0.6000E+01
  -9.693  0.0000E+00  0.6000E+01
  -9.683  0.0000E+00  0.6000E+01
  -9.673  0.0000E+00  0.6000E+01
  -9.663  0.0000E+00  0.6000E+01
  -9.653  0.0000E+00  0.6000E+01
  -9.643  0.0000E+00  0.6000E+01
  -9.633  0.0000E+00  0.6000E+01
  -9.623  0.0000E+00  0.6000E+01
  -9.613  0.0000E+00  0.6000E+01
  -9.603  0.0000E+00  0.6000E+01
  -9.593  0.0000E+00  0.6000E+01
  -9.583  0.0000E+00  0.6000E+01
  -9.573  0.0000E+00  0.6000E+01
  -9.563  0.0000E+00  0.6000E+01
  -9.553  0.0000E+00  0.6000E+01
  -9.543  0.0000E+00  0.6000E+01
  -9.533  0.0000E+00  0.6000E+01
  -9.523  0.0000E+00  0.6000E+01
  -9.513  0.0000E+00  0.6000E+01
  -9.503  0.0000E+00  0.6000E+01
  -9.493  0.0000E+00  0.6000E+01
  -9.483  0.0000E+00  0.6000E+01
  -9.473  0.0000E+00  0.6000E+01
  -9.463  0.0000E+00  0.6000E+01
  -9.453  0.0000E+00  0.6000E+01
  -9.443  0.0000E+00  0.6000E+01
  -9.433  0.0000E+00  0.6000E+01
  -9.423  0.0000E+00  0.6000E+01
  -9.413  0.0000E+00  0.6000E+01
  -9.403  0.0000E+00  0.6000E+01
  -9.393  0.0000E+00  0.6000E+01
  -9.383  0.0000E+00  0.6000E+01
  -9.373  0.0000E+00  0.6000E+01
  -9.363  0.0000E+00  0.6000E+01
  -9.353  0.0000E+00  0.6000E+01
  -9.343  0.0000E+00  0.6000E+01
  -9.333  0.0000E+00  0.6000E+01
  -9.323  0.0000E+00  0.6000E+01
  -9.313  0.0000E+00  0.6000E+01
  -9.303  0.0000E+00  0.6000E+01
  -9.293  0.0000E+00  0.6000E+01
  -9.283  0.0000E+00  0.6000E+01
  -9.273  0.0000E+00  0.6000E+01
  -9.263  0.0000E+00  0.6000E+01
  -9.253  0.0000E+00  0.6000E+01
  -9.243  0.0000E+00  0.6000E+01
  -9.233  0.0000E+00  0.6000E+01
  -9.223  0.0000E+00  0.6000E+01
  -9.213  0.0000E+00  0.6000E+01
  -9.203  0.0000E+00  0.6000E+01
  -9.193  0.0000E+00  0.6000E+01
  -9.183  0.0000E+00  0.6000E+01
  -9.173  0.0000E+00  0.6000E+01
  -9.163  0.0000E+00  0.6000E+01
  -9.153  0.0000E+00  0.6000E+01
  -9.143  0.0000E+00  0.6000E+01
  -9.133  0.0000E+00  0.6000E+01
  -9.123  0.0000E+00  0.6000E+01
  -9.113  0.0000E+00  0.6000E+01
  -9.103  0.0000E+00  0.6000E+01
  -9.093  0.0000E+00  0.6000E+01
  -9.083  0.0000E+00  0.6000E+01
  -9.073  0.0000E+00  0.6000E+01
  -9.063  0.0000E+00  0.6000E+01
  -9.053  0.0000E+00  0.6000E+01
  -9.043  0.0000E+00  0.6000E+01
  -9.033  0.0000E+00  0.6000E+01
  -9.023  0.0000E+00  0.6000E+01
  -9.013  0.0000E+00  0.6000E+01
  -9.003  0.0000E+00  0.6000E+01
  -8.993  0.0000E+00  0.6000E+01
  -8.983  0.0000E+00  0.6000E+01
  -8.973  0.0000E+00  0.6000E+01
  -8.963  0.0000E+00  0.6000E+01
  -8.953  0.0000E+00  0.6000E+01
  -8.943  0.0000E+00  0.6000E+01
  -8.933  0.0000E+00  0.6000E+01
  -8.923  0.0000E+00  0.6000E+01
  -8.913  0.0000E+00  0.6000E+01
  -8.903  0.0000E+00  0.6000E+01
  -8.893  0.0000E+00  0.6000E+01
  -8.883  0.0000E+00  0.6000E+01
  -8.873  0.0000E+00  0.6000E+01
  -8.863  0.0000E+00  0.6000E+01
  -8.853  0.0000E+00  0.6000E+01
  -8.843  0.0000E+00  0.6000E+01
  -8.833  0.0000E+00  0.6000E+01
  -8.823  0.0000E+00  0.6000E+01
  -8.813  0.0000E+00  0.6000E+01
  -8.803  0.0000E+00  0.6000E+01
  -8.793  0.0000E+00  0.6000E+01
  -8.783  0.0000E+00  0.6000E+01
  -8.773  0.0000E+00  0.6000E+01
  -8.763  0.0000E+00  0.6000E+01
  -8.753  0.0000E+00  0.6000E+01
  -8.743  0.0000E+00  0.6000E+01
  -8.733  0.0000E+00  0.6000E+01
  -8.723  0.0000E+00  0.6000E+01
  -8.713  0.0000E+00  0.6000E+01
  -8.703  0.0000E+00  0.6000E+01
  -8.693  0.0000E+00  0.6000E+01
  -8.683  0.0000E+00  0.6000E+01
  -8.673  0.0000E+00  0.6000E+01
  -8.663  0.0000E+00  0.6000E+01
  -8.653  0.0000E+00  0.6000E+01
  -8.643  0.0000E+00  0.6000E+01
  -8.633  0.0000E+00  0.6000E+01
  -8.623  0.0000E+00  0.6000E+01
  -8.613  0.0000E+00  0.6000E+01
  -8.603  0.0000E+00  0.6000E+01
  -8.593  0.0000E+00  0.6000E+01
  -8.583  0.0000E+00  0.6000E+01
  -8.573  0.0000E+00  0.6000E+01
  -8.563  0.0000E+00  0.6000E+01
  -8.553  0.0000E+00  0.6000E+01
  -8.543  0.0000E+00  0.6000E+01
  -8.533  0.0000E+00  0.6000E+01
  -8.523  0.0000E+00  0.6000E+01
  -8.513  0.0000E+00  0.6000E+01
  -8.503  0.0000E+00  0.6000E+01
  -8.493  0.0000E+00  0.6000E+01
  -8.483  0.0000E+00  0.6000E+01
  -8.473  0.0000E+00  0.6000E+01
  -8.463  0.0000E+00  0.6000E+01
  -8.453  0.0000E+00  0.6000E+01
  -8.443  0.0000E+00  0.6000E+01
  -8.433  0.0000E+00  0.6000E+01
  -8.423  0.0000E+00  0.6000E+01
  -8.413  0.0000E+00  0.6000E+01
  -8.403  0.0000E+00  0.6000E+01
  -8.393  0.0000E+00  0.6000E+01
  -8.383  0.0000E+00  0.6000E+01
  -8.373  0.0000E+00  0.6000E+01
  -8.363  0.0000E+00  0.6000E+01
  -8.353  0.0000E+00  0.6000E+01
  -8.343  0.0000E+00  0.6000E+01
  -8.333  0.0000E+00  0.6000E+01
  -8.323  0.0000E+00  0.6000E+01
  -8.313  0.0000E+00  0.6000E+01
  -8.303  0.0000E+00  0.6000E+01
  -8.293  0.0000E+00  0.6000E+01
  -8.283  0.0000E+00  0.6000E+01
  -8.273  0.0000E+00  0.6000E+01
  -8.263  0.0000E+00  0.6000E+01
  -8.253  0.0000E+00  0.6000E+01
  -8.243  0.0000E+00  0.6000E+01
  -8.233  0.0000E+00  0.6000E+01
  -8.223  0.0000E+00  0.6000E+01
  -8.213  0.0000E+00  0.6000E+01
  -8.203  0.0000E+00  0.6000E+01
  -8.193  0.0000E+00  0.6000E+01
  -8.183  0.0000E+00  0.6000E+01
  -8.173  0.0000E+00  0.6000E+01
  -8.163  0.0000E+00  0.6000E+01
  -8.153  0.0000E+00  0.6000E+01
  -8.143  0.0000E+00  0.6000E+01
  -8.133  0.0000E+00  0.6000E+01
  -8.123  0.0000E+00  0.6000E+01
  -8.113  0.0000E+00  0.6000E+01
  -8.103  0.0000E+00  0.6000E+01
  -8.093  0.0000E+00  0.6000E+01
  -8.083  0.0000E+00  0.6000E+01
  -8.073  0.0000E+00  0.6000E+01
  -8.063  0.0000E+00  0.6000E+01
  -8.053  0.0000E+00  0.6000E+01
  -8.043  0.0000E+00  0.6000E+01
  -8.033  0.0000E+00  0.6000E+01
  -8.023  0.0000E+00  0.6000E+01
  -8.013  0.0000E+00  0.6000E+01
  -8.003  0.0000E+00  0.6000E+01
  -7.993  0.0000E+00  0.6000E+01
  -7.983  0.0000E+00  0.6000E+01
  -7.973  0.0000E+00  0.6000E+01
  -7.963  0.0000E+00  0.6000E+01
  -7.953  0.0000E+00  0.6000E+01
  -7.943  0.0000E+00  0.6000E+01
  -7.933  0.0000E+00  0.6000E+01
  -7.923  0.0000E+00  0.6000E+01
  -7.913  0.0000E+00  0.6000E+01
  -7.903  0.0000E+00  0.6000E+01
  -7.893  0.0000E+00  0.6000E+01
  -7.883  0.0000E+00  0.6000E+01
  -7.873  0.0000E+00  0.6000E+01
  -7.863  0.0000E+00  0.6000E+01
  -7.853  0.0000E+00  0.6000E+01
  -7.843  0.0000E+00  0.6000E+01
  -7.833  0.0000E+00  0.6000E+01
  -7.823  0.0000E+00  0.6000E+01
  -7.813  0.8185E-03  0.6000E+01
  -7.803  0.1184E+00  0.6001E+01
  -7.793  0.1844E+00  0.6002E+01
  -7.783  0.2185E+00  0.6004E+01
  -7.773  0.2616E+00  0.6007E+01
  -7.763  0.2996E+00  0.6009E+01
  -7.753  0.3285E+00  0.6013E+01
  -7.743  0.3600E+00  0.6016E+01
  -7.733  0.3955E+00  0.6020E+01
  -7.723  0.4189E+00  0.6024E+01
  -7.713  0.4450E+00  0.6028E+01
  -7.703  0.4746E+00  0.6033E+01
  -7.693  0.5044E+00  0.6038E+01
  -7.683  0.5279E+00  0.6043E+01
  -7.673  0.5529E+00  0.6048E+01
  -7.663  0.5795E+00  0.6054E+01
  -7.653  0.6069E+00  0.6060E+01
  -7.643  0.6337E+00  0.6066E+01
  -7.633  0.6587E+00  0.6072E+01
  -7.623  0.6840E+00  0.6079E+01
  -7.613  0.7106E+00  0.6086E+01
  -7.603  0.7381E+00  0.6093E+01
  -7.593  0.7658E+00  0.6101E+01
  -7.583  0.7922E+00  0.6109E+01
  -7.573  0.8193E+00  0.6117E+01
  -7.563  0.8474E+00  0.6125E+01
  -7.553  0.8761E+00  0.6134E+01
  -7.543  0.9054E+00  0.6143E+01
  -7.533  0.9350E+00  0.6152E+01
  -7.523  0.9654E+00  0.6161E+01
  -7.513  0.9965E+00  0.6171E+01
  -7.503  0.1028E+01  0.6181E+01
  -7.493  0.1060E+01  0.6192E+01
  -7.483  0.1094E+01  0.6202E+01
  -7.473  0.1130E+01  0.6214E+01
  -7.463  0.1166E+01  0.6225E+01
  -7.453  0.1202E+01  0.6237E+01
  -7.443  0.1239E+01  0.6249E+01
  -7.433  0.1280E+01  0.6262E+01
  -7.423  0.1324E+01  0.6275E+01
  -7.413  0.1369E+01  0.6288E+01
  -7.403  0.1414E+01  0.6302E+01
  -7.393  0.1460E+01  0.6316E+01
  -7.383  0.1516E+01  0.6331E+01
  -7.373  0.1575E+01  0.6347E+01
  -7.363  0.1634E+01  0.6363E+01
  -7.353  0.1694E+01  0.6379E+01
  -7.343  0.1776E+01  0.6397E+01
  -7.333  0.1862E+01  0.6415E+01
  -7.323  0.1948E+01  0.6434E+01
  -7.313  0.2090E+01  0.6454E+01
  -7.303  0.2256E+01  0.6476E+01
  -7.293  0.2517E+01  0.6500E+01
  -7.283  0.2534E+01  0.6525E+01
  -7.273  0.2502E+01  0.6551E+01
  -7.263  0.2508E+01  0.6576E+01
  -7.253  0.2483E+01  0.6601E+01
  -7.243  0.2480E+01  0.6625E+01
  -7.233  0.2479E+01  0.6650E+01
  -7.223  0.2458E+01  0.6675E+01
  -7.213  0.2452E+01  0.6699E+01
  -7.203  0.2449E+01  0.6724E+01
  -7.193  0.2442E+01  0.6748E+01
  -7.183  0.2426E+01  0.6773E+01
  -7.173  0.2419E+01  0.6797E+01
  -7.163  0.2414E+01  0.6821E+01
  -7.153  0.2407E+01  0.6845E+01
  -7.143  0.2395E+01  0.6869E+01
  -7.133  0.2386E+01  0.6893E+01
  -7.123  0.2379E+01  0.6917E+01
  -7.113  0.2373E+01  0.6941E+01
  -7.103  0.2366E+01  0.6964E+01
  -7.093  0.2355E+01  0.6988E+01
  -7.083  0.2346E+01  0.7012E+01
  -7.073  0.2340E+01  0.7035E+01
  -7.063  0.2333E+01  0.7058E+01
  -7.053  0.2325E+01  0.7082E+01
  -7.043  0.2317E+01  0.7105E+01
  -7.033  0.2309E+01  0.7128E+01
  -7.023  0.2301E+01  0.7151E+01
  -7.013  0.2293E+01  0.7174E+01
  -7.003  0.2286E+01  0.7197E+01
  -6.993  0.2279E+01  0.7220E+01
  -6.983  0.2272E+01  0.7242E+01
  -6.973  0.2264E+01  0.7265E+01
  -6.963  0.2255E+01  0.7288E+01
  -6.953  0.2247E+01  0.7310E+01
  -6.943  0.2243E+01  0.7333E+01
  -6.933  0.2237E+01  0.7355E+01
  -6.923  0.2227E+01  0.7377E+01
  -6.913  0.2217E+01  0.7400E+01
  -6.903  0.2210E+01  0.7422E+01
  -6.893  0.2211E+01  0.7444E+01
  -6.883  0.2200E+01  0.7466E+01
  -6.873  0.2188E+01  0.7488E+01
  -6.863  0.2180E+01  0.7510E+01
  -6.853  0.2185E+01  0.7532E+01
  -6.843  0.2170E+01  0.7553E+01
  -6.833  0.2153E+01  0.7575E+01
  -6.823  0.2168E+01  0.7597E+01
  -6.813  0.2141E+01  0.7618E+01
  -6.803  0.1995E+01  0.7639E+01
  -6.793  0.1791E+01  0.7658E+01
  -6.783  0.1660E+01  0.7675E+01
  -6.773  0.1565E+01  0.7691E+01
  -6.763  0.1477E+01  0.7707E+01
  -6.753  0.1408E+01  0.7721E+01
  -6.743  0.1341E+01  0.7735E+01
  -6.733  0.1279E+01  0.7748E+01
  -6.723  0.1228E+01  0.7760E+01
  -6.713  0.1177E+01  0.7772E+01
  -6.703  0.1126E+01  0.7784E+01
  -6.693  0.1081E+01  0.7795E+01
  -6.683  0.1041E+01  0.7806E+01
  -6.673  0.1001E+01  0.7816E+01
  -6.663  0.9619E+00  0.7826E+01
  -6.653  0.9236E+00  0.7835E+01
  -6.643  0.8901E+00  0.7844E+01
  -6.633  0.8575E+00  0.7853E+01
  -6.623  0.8251E+00  0.7861E+01
  -6.613  0.7934E+00  0.7869E+01
  -6.603  0.7628E+00  0.7877E+01
  -6.593  0.7346E+00  0.7885E+01
  -6.583  0.7072E+00  0.7892E+01
  -6.573  0.6802E+00  0.7899E+01
  -6.563  0.6537E+00  0.7905E+01
  -6.553  0.6276E+00  0.7912E+01
  -6.543  0.6030E+00  0.7918E+01
  -6.533  0.5791E+00  0.7924E+01
  -6.523  0.5556E+00  0.7930E+01
  -6.513  0.5326E+00  0.7935E+01
  -6.503  0.5101E+00  0.7940E+01
  -6.493  0.4879E+00  0.7945E+01
  -6.483  0.4660E+00  0.7950E+01
  -6.473  0.4446E+00  0.7955E+01
  -6.463  0.4239E+00  0.7959E+01
  -6.453  0.4043E+00  0.7963E+01
  -6.443  0.3835E+00  0.7967E+01
  -6.433  0.3620E+00  0.7971E+01
  -6.423  0.3418E+00  0.7974E+01
  -6.413  0.3226E+00  0.7977E+01
  -6.403  0.3050E+00  0.7981E+01
  -6.393  0.2827E+00  0.7984E+01
  -6.383  0.2609E+00  0.7986E+01
  -6.373  0.2412E+00  0.7989E+01
  -6.363  0.2232E+00  0.7991E+01
  -6.353  0.1994E+00  0.7993E+01
  -6.343  0.1741E+00  0.7995E+01
  -6.333  0.1517E+00  0.7997E+01
  -6.323  0.1261E+00  0.7998E+01
  -6.313  0.8827E-01  0.7999E+01
  -6.303  0.3527E-01  0.8000E+01
  -6.293  0.0000E+00  0.8000E+01
  -6.283  0.0000E+00  0.8000E+01
  -6.273  0.0000E+00  0.8000E+01
  -6.263  0.0000E+00  0.8000E+01
  -6.253  0.0000E+00  0.8000E+01
  -6.243  0.0000E+00  0.8000E+01
  -6.233  0.0000E+00  0.8000E+01
  -6.223  0.0000E+00  0.8000E+01
  -6.213  0.0000E+00  0.8000E+01
  -6.203  0.0000E+00  0.8000E+01
  -6.193  0.0000E+00  0.8000E+01
  -6.183  0.0000E+00  0.8000E+01
  -6.173  0.0000E+00  0.8000E+01
  -6.163  0.0000E+00  0.8000E+01
  -6.153  0.0000E+00  0.8000E+01
  -6.143  0.0000E+00  0.8000E+01
  -6.133  0.0000E+00  0.8000E+01
  -6.123  0.0000E+00  0.8000E+01
  -6.113  0.0000E+00  0.8000E+01
  -6.103  0.0000E+00  0.8000E+01
  -6.093  0.0000E+00  0.8000E+01
  -6.083  0.0000E+00  0.8000E+01
  -6.073  0.0000E+00  0.8000E+01
  -6.063  0.0000E+00  0.8000E+01
  -6.053  0.0000E+00  0.8000E+01
  -6.043  0.0000E+00  0.8000E+01
  -6.033  0.0000E+00  0.8000E+01
  -6.023  0.0000E+00  0.8000E+01
  -6.013  0.0000E+00  0.8000E+01
  -6.003  0.0000E+00  0.8000E+01
  -5.993  0.0000E+00  0.8000E+01
  -5.983  0.0000E+00  0.8000E+01
  -5.973  0.0000E+00  0.8000E+01
  -5.963  0.0000E+00  0.8000E+01
  -5.953  0.0000E+00  0.8000E+01
  -5.943  0.0000E+00  0.8000E+01
  -5.933  0.0000E+00  0.8000E+01
  -5.923  0.0000E+00  0.8000E+01
  -5.913  0.0000E+00  0.8000E+01
  -5.903  0.0000E+00  0.8000E+01
  -5.893  0.0000E+00  0.8000E+01
  -5.883  0.0000E+00  0.8000E+01
  -5.873  0.0000E+00  0.8000E+01
  -5.863  0.0000E+00  0.8000E+01
  -5.853  0.0000E+00  0.8000E+01
  -5.843  0.0000E+00  0.8000E+01
  -5.833  0.0000E+00  0.8000E+01
  -5.823  0.0000E+00  0.8000E+01
  -5.813  0.0000E+00  0.8000E+01
  -5.803  0.0000E+00  0.8000E+01
  -5.793  0.0000E+00  0.8000E+01
  -5.783  0.0000E+00  0.8000E+01
  -5.773  0.0000E+00  0.8000E+01
  -5.763  0.0000E+00  0.8000E+01
  -5.753  0.0000E+00  0.8000E+01
  -5.743  0.0000E+00  0.8000E+01
  -5.733  0.0000E+00  0.8000E+01
  -5.723  0.0000E+00  0.8000E+01
  -5.713  0.0000E+00  0.8000E+01
  -5.703  0.0000E+00  0.8000E+01
  -5.693  0.0000E+00  0.8000E+01
  -5.683  0.0000E+00  0.8000E+01
  -5.673  0.0000E+00  0.8000E+01
  -5.663  0.0000E+00  0.8000E+01
  -5.653  0.0000E+00  0.8000E+01
  -5.643  0.0000E+00  0.8000E+01
  -5.633  0.0000E+00  0.8000E+01
  -5.623  0.0000E+00  0.8000E+01
  -5.613  0.0000E+00  0.8000E+01
  -5.603  0.0000E+00  0.8000E+01
  -5.593  0.0000E+00  0.8000E+01
  -5.583  0.0000E+00  0.8000E+01
  -5.573  0.0000E+00  0.8000E+01
  -5.563  0.0000E+00  0.8000E+01
  -5.553  0.0000E+00  0.8000E+01
  -5.543  0.0000E+00  0.8000E+01
  -5.533  0.0000E+00  0.8000E+01
  -5.523  0.0000E+00  0.8000E+01
  -5.513  0.0000E+00  0.8000E+01
  -5.503  0.0000E+00  0.8000E+01
  -5.493  0.0000E+00  0.8000E+01
  -5.483  0.0000E+00  0.8000E+01
  -5.473  0.0000E+00  0.8000E+01
  -5.463  0.0000E+00  0.8000E+01
  -5.453  0.0000E+00  0.8000E+01
  -5.443  0.0000E+00  0.8000E+01
  -5.433  0.0000E+00  0.8000E+01
  -5.423  0.0000E+00  0.8000E+01
  -5.413  0.0000E+00  0.8000E+01
  -5.403  0.0000E+00  0.8000E+01
  -5.393  0.0000E+00  0.8000E+01
