#  E (eV)   dos(E)     Int dos(E) EFermi =    1.894 eV
 -11.422  0.0000E+00  0.0000E+00
 -11.412  0.1780E+00  0.5933E-03
 -11.402  0.7120E+00  0.4747E-02
 -11.392  0.1313E+01  0.1513E-01
 -11.382  0.1587E+01  0.2991E-01
 -11.372  0.1701E+01  0.4627E-01
 -11.362  0.1927E+01  0.6432E-01
 -11.352  0.2235E+01  0.8511E-01
 -11.342  0.2559E+01  0.1091E+00
 -11.332  0.2832E+01  0.1361E+00
 -11.322  0.3034E+01  0.1655E+00
 -11.312  0.3253E+01  0.1969E+00
 -11.302  0.3516E+01  0.2307E+00
 -11.292  0.3791E+01  0.2672E+00
 -11.282  0.4071E+01  0.3065E+00
 -11.272  0.4358E+01  0.3487E+00
 -11.262  0.4786E+01  0.3941E+00
 -11.252  0.5495E+01  0.4453E+00
 -11.242  0.6315E+01  0.5044E+00
 -11.232  0.7055E+01  0.5713E+00
 -11.222  0.7496E+01  0.6445E+00
 -11.212  0.7409E+01  0.7195E+00
 -11.202  0.7133E+01  0.7920E+00
 -11.192  0.7055E+01  0.8628E+00
 -11.182  0.7012E+01  0.9333E+00
 -11.172  0.6902E+01  0.1003E+01
 -11.162  0.6740E+01  0.1071E+01
 -11.152  0.6531E+01  0.1137E+01
 -11.142  0.6360E+01  0.1202E+01
 -11.132  0.6224E+01  0.1265E+01
 -11.122  0.6071E+01  0.1326E+01
 -11.112  0.5940E+01  0.1386E+01
 -11.102  0.5849E+01  0.1445E+01
 -11.092  0.5773E+01  0.1503E+01
 -11.082  0.5698E+01  0.1561E+01
 -11.072  0.5536E+01  0.1617E+01
 -11.062  0.5170E+01  0.1671E+01
 -11.052  0.4807E+01  0.1721E+01
 -11.042  0.4402E+01  0.1767E+01
 -11.032  0.3950E+01  0.1809E+01
 -11.022  0.3447E+01  0.1846E+01
 -11.012  0.2871E+01  0.1877E+01
 -11.002  0.2426E+01  0.1903E+01
 -10.992  0.2076E+01  0.1926E+01
 -10.982  0.1785E+01  0.1945E+01
 -10.972  0.1546E+01  0.1962E+01
 -10.962  0.1202E+01  0.1976E+01
 -10.952  0.9015E+00  0.1986E+01
 -10.942  0.6513E+00  0.1994E+01
 -10.932  0.2947E+00  0.1999E+01
 -10.922  0.5188E+02  0.2035E+01
 -10.912  0.4184E+02  0.2552E+01
 -10.902  0.3579E+02  0.2940E+01
 -10.892  0.3379E+02  0.3284E+01
 -10.882  0.2045E+02  0.3532E+01
 -10.872  0.2050E+02  0.3738E+01
 -10.862  0.2025E+02  0.3949E+01
 -10.852  0.1883E+02  0.4143E+01
 -10.842  0.1817E+02  0.4328E+01
 -10.832  0.1937E+02  0.4517E+01
 -10.822  0.1771E+02  0.4707E+01
 -10.812  0.1716E+02  0.4884E+01
 -10.802  0.1956E+02  0.5072E+01
 -10.792  0.1834E+02  0.5260E+01
 -10.782  0.1781E+02  0.5441E+01
 -10.772  0.2149E+02  0.5637E+01
 -10.762  0.2081E+02  0.5863E+01
 -10.752  0.5016E+01  0.5997E+01
 -10.742  0.0000E+00  0.6000E+01
 -10.732  0.0000E+00  0.6000E+01
 -10.722  0.0000E+00  0.6000E+01
 -10.712  0.0000E+00  0.6000E+01
 -10.702  0.0000E+00  0.6000E+01
 -10.692  0.0000E+00  0.6000E+01
 -10.682  0.0000E+00  0.6000E+01
 -10.672  0.0000E+00  0.6000E+01
 -10.662  0.0000E+00  0.6000E+01
 -10.652  0.0000E+00  0.6000E+01
 -10.642  0.0000E+00  0.6000E+01
 -10.632  0.0000E+00  0.6000E+01
 -10.622  0.0000E+00  0.6000E+01
 -10.612  0.0000E+00  0.6000E+01
 -10.602  0.0000E+00  0.6000E+01
 -10.592  0.0000E+00  0.6000E+01
 -10.582  0.0000E+00  0.6000E+01
 -10.572  0.0000E+00  0.6000E+01
 -10.562  0.0000E+00  0.6000E+01
 -10.552  0.0000E+00  0.6000E+01
 -10.542  0.0000E+00  0.6000E+01
 -10.532  0.0000E+00  0.6000E+01
 -10.522  0.0000E+00  0.6000E+01
 -10.512  0.0000E+00  0.6000E+01
 -10.502  0.0000E+00  0.6000E+01
 -10.492  0.0000E+00  0.6000E+01
 -10.482  0.0000E+00  0.6000E+01
 -10.472  0.0000E+00  0.6000E+01
 -10.462  0.0000E+00  0.6000E+01
 -10.452  0.0000E+00  0.6000E+01
 -10.442  0.0000E+00  0.6000E+01
 -10.432  0.0000E+00  0.6000E+01
 -10.422  0.0000E+00  0.6000E+01
 -10.412  0.0000E+00  0.6000E+01
 -10.402  0.0000E+00  0.6000E+01
 -10.392  0.0000E+00  0.6000E+01
 -10.382  0.0000E+00  0.6000E+01
 -10.372  0.0000E+00  0.6000E+01
 -10.362  0.0000E+00  0.6000E+01
 -10.352  0.0000E+00  0.6000E+01
 -10.342  0.0000E+00  0.6000E+01
 -10.332  0.0000E+00  0.6000E+01
 -10.322  0.0000E+00  0.6000E+01
 -10.312  0.0000E+00  0.6000E+01
 -10.302  0.0000E+00  0.6000E+01
 -10.292  0.0000E+00  0.6000E+01
 -10.282  0.0000E+00  0.6000E+01
 -10.272  0.0000E+00  0.6000E+01
 -10.262  0.0000E+00  0.6000E+01
 -10.252  0.0000E+00  0.6000E+01
 -10.242  0.0000E+00  0.6000E+01
 -10.232  0.0000E+00  0.6000E+01
 -10.222  0.0000E+00  0.6000E+01
 -10.212  0.0000E+00  0.6000E+01
 -10.202  0.0000E+00  0.6000E+01
 -10.192  0.0000E+00  0.6000E+01
 -10.182  0.0000E+00  0.6000E+01
 -10.172  0.0000E+00  0.6000E+01
 -10.162  0.0000E+00  0.6000E+01
 -10.152  0.0000E+00  0.6000E+01
 -10.142  0.0000E+00  0.6000E+01
 -10.132  0.0000E+00  0.6000E+01
 -10.122  0.0000E+00  0.6000E+01
 -10.112  0.0000E+00  0.6000E+01
 -10.102  0.0000E+00  0.6000E+01
 -10.092  0.0000E+00  0.6000E+01
 -10.082  0.0000E+00  0.6000E+01
 -10.072  0.0000E+00  0.6000E+01
 -10.062  0.0000E+00  0.6000E+01
 -10.052  0.0000E+00  0.6000E+01
 -10.042  0.0000E+00  0.6000E+01
 -10.032  0.0000E+00  0.6000E+01
 -10.022  0.0000E+00  0.6000E+01
 -10.012  0.0000E+00  0.6000E+01
 -10.002  0.0000E+00  0.6000E+01
  -9.992  0.0000E+00  0.6000E+01
  -9.982  0.0000E+00  0.6000E+01
  -9.972  0.0000E+00  0.6000E+01
  -9.962  0.0000E+00  0.6000E+01
  -9.952  0.0000E+00  0.6000E+01
  -9.942  0.0000E+00  0.6000E+01
  -9.932  0.0000E+00  0.6000E+01
  -9.922  0.0000E+00  0.6000E+01
  -9.912  0.0000E+00  0.6000E+01
  -9.902  0.0000E+00  0.6000E+01
  -9.892  0.0000E+00  0.6000E+01
  -9.882  0.0000E+00  0.6000E+01
  -9.872  0.0000E+00  0.6000E+01
  -9.862  0.0000E+00  0.6000E+01
  -9.852  0.0000E+00  0.6000E+01
  -9.842  0.0000E+00  0.6000E+01
  -9.832  0.0000E+00  0.6000E+01
  -9.822  0.0000E+00  0.6000E+01
  -9.812  0.0000E+00  0.6000E+01
  -9.802  0.0000E+00  0.6000E+01
  -9.792  0.0000E+00  0.6000E+01
  -9.782  0.0000E+00  0.6000E+01
  -9.772  0.0000E+00  0.6000E+01
  -9.762  0.0000E+00  0.6000E+01
  -9.752  0.0000E+00  0.6000E+01
  -9.742  0.0000E+00  0.6000E+01
  -9.732  0.0000E+00  0.6000E+01
  -9.722  0.0000E+00  0.6000E+01
  -9.712  0.0000E+00  0.6000E+01
  -9.702  0.0000E+00  0.6000E+01
  -9.692  0.0000E+00  0.6000E+01
  -9.682  0.0000E+00  0.6000E+01
  -9.672  0.0000E+00  0.6000E+01
  -9.662  0.0000E+00  0.6000E+01
  -9.652  0.0000E+00  0.6000E+01
  -9.642  0.0000E+00  0.6000E+01
  -9.632  0.0000E+00  0.6000E+01
  -9.622  0.0000E+00  0.6000E+01
  -9.612  0.0000E+00  0.6000E+01
  -9.602  0.0000E+00  0.6000E+01
  -9.592  0.0000E+00  0.6000E+01
  -9.582  0.0000E+00  0.6000E+01
  -9.572  0.0000E+00  0.6000E+01
  -9.562  0.0000E+00  0.6000E+01
  -9.552  0.0000E+00  0.6000E+01
  -9.542  0.0000E+00  0.6000E+01
  -9.532  0.0000E+00  0.6000E+01
  -9.522  0.0000E+00  0.6000E+01
  -9.512  0.0000E+00  0.6000E+01
  -9.502  0.0000E+00  0.6000E+01
  -9.492  0.0000E+00  0.6000E+01
  -9.482  0.0000E+00  0.6000E+01
  -9.472  0.0000E+00  0.6000E+01
  -9.462  0.0000E+00  0.6000E+01
  -9.452  0.0000E+00  0.6000E+01
  -9.442  0.0000E+00  0.6000E+01
  -9.432  0.0000E+00  0.6000E+01
  -9.422  0.0000E+00  0.6000E+01
  -9.412  0.0000E+00  0.6000E+01
  -9.402  0.0000E+00  0.6000E+01
  -9.392  0.0000E+00  0.6000E+01
  -9.382  0.0000E+00  0.6000E+01
  -9.372  0.0000E+00  0.6000E+01
  -9.362  0.0000E+00  0.6000E+01
  -9.352  0.0000E+00  0.6000E+01
  -9.342  0.0000E+00  0.6000E+01
  -9.332  0.0000E+00  0.6000E+01
  -9.322  0.0000E+00  0.6000E+01
  -9.312  0.0000E+00  0.6000E+01
  -9.302  0.0000E+00  0.6000E+01
  -9.292  0.0000E+00  0.6000E+01
  -9.282  0.0000E+00  0.6000E+01
  -9.272  0.0000E+00  0.6000E+01
  -9.262  0.0000E+00  0.6000E+01
  -9.252  0.0000E+00  0.6000E+01
  -9.242  0.0000E+00  0.6000E+01
  -9.232  0.0000E+00  0.6000E+01
  -9.222  0.0000E+00  0.6000E+01
  -9.212  0.0000E+00  0.6000E+01
  -9.202  0.0000E+00  0.6000E+01
  -9.192  0.0000E+00  0.6000E+01
  -9.182  0.0000E+00  0.6000E+01
  -9.172  0.0000E+00  0.6000E+01
  -9.162  0.0000E+00  0.6000E+01
  -9.152  0.0000E+00  0.6000E+01
  -9.142  0.0000E+00  0.6000E+01
  -9.132  0.0000E+00  0.6000E+01
  -9.122  0.0000E+00  0.6000E+01
  -9.112  0.0000E+00  0.6000E+01
  -9.102  0.0000E+00  0.6000E+01
  -9.092  0.0000E+00  0.6000E+01
  -9.082  0.0000E+00  0.6000E+01
  -9.072  0.0000E+00  0.6000E+01
  -9.062  0.0000E+00  0.6000E+01
  -9.052  0.0000E+00  0.6000E+01
  -9.042  0.0000E+00  0.6000E+01
  -9.032  0.0000E+00  0.6000E+01
  -9.022  0.0000E+00  0.6000E+01
  -9.012  0.0000E+00  0.6000E+01
  -9.002  0.0000E+00  0.6000E+01
  -8.992  0.0000E+00  0.6000E+01
  -8.982  0.0000E+00  0.6000E+01
  -8.972  0.0000E+00  0.6000E+01
  -8.962  0.0000E+00  0.6000E+01
  -8.952  0.0000E+00  0.6000E+01
  -8.942  0.0000E+00  0.6000E+01
  -8.932  0.0000E+00  0.6000E+01
  -8.922  0.0000E+00  0.6000E+01
  -8.912  0.0000E+00  0.6000E+01
  -8.902  0.0000E+00  0.6000E+01
  -8.892  0.0000E+00  0.6000E+01
  -8.882  0.0000E+00  0.6000E+01
  -8.872  0.0000E+00  0.6000E+01
  -8.862  0.0000E+00  0.6000E+01
  -8.852  0.0000E+00  0.6000E+01
  -8.842  0.0000E+00  0.6000E+01
  -8.832  0.0000E+00  0.6000E+01
  -8.822  0.0000E+00  0.6000E+01
  -8.812  0.0000E+00  0.6000E+01
  -8.802  0.0000E+00  0.6000E+01
  -8.792  0.0000E+00  0.6000E+01
  -8.782  0.0000E+00  0.6000E+01
  -8.772  0.0000E+00  0.6000E+01
  -8.762  0.0000E+00  0.6000E+01
  -8.752  0.0000E+00  0.6000E+01
  -8.742  0.0000E+00  0.6000E+01
  -8.732  0.0000E+00  0.6000E+01
  -8.722  0.0000E+00  0.6000E+01
  -8.712  0.0000E+00  0.6000E+01
  -8.702  0.0000E+00  0.6000E+01
  -8.692  0.0000E+00  0.6000E+01
  -8.682  0.0000E+00  0.6000E+01
  -8.672  0.0000E+00  0.6000E+01
  -8.662  0.0000E+00  0.6000E+01
  -8.652  0.0000E+00  0.6000E+01
  -8.642  0.0000E+00  0.6000E+01
  -8.632  0.0000E+00  0.6000E+01
  -8.622  0.0000E+00  0.6000E+01
  -8.612  0.0000E+00  0.6000E+01
  -8.602  0.0000E+00  0.6000E+01
  -8.592  0.0000E+00  0.6000E+01
  -8.582  0.0000E+00  0.6000E+01
  -8.572  0.0000E+00  0.6000E+01
  -8.562  0.0000E+00  0.6000E+01
  -8.552  0.0000E+00  0.6000E+01
  -8.542  0.0000E+00  0.6000E+01
  -8.532  0.0000E+00  0.6000E+01
  -8.522  0.0000E+00  0.6000E+01
  -8.512  0.0000E+00  0.6000E+01
  -8.502  0.0000E+00  0.6000E+01
  -8.492  0.0000E+00  0.6000E+01
  -8.482  0.0000E+00  0.6000E+01
  -8.472  0.0000E+00  0.6000E+01
  -8.462  0.0000E+00  0.6000E+01
  -8.452  0.0000E+00  0.6000E+01
  -8.442  0.0000E+00  0.6000E+01
  -8.432  0.0000E+00  0.6000E+01
  -8.422  0.0000E+00  0.6000E+01
  -8.412  0.0000E+00  0.6000E+01
  -8.402  0.0000E+00  0.6000E+01
  -8.392  0.0000E+00  0.6000E+01
  -8.382  0.0000E+00  0.6000E+01
  -8.372  0.0000E+00  0.6000E+01
  -8.362  0.0000E+00  0.6000E+01
  -8.352  0.0000E+00  0.6000E+01
  -8.342  0.0000E+00  0.6000E+01
  -8.332  0.0000E+00  0.6000E+01
  -8.322  0.0000E+00  0.6000E+01
  -8.312  0.0000E+00  0.6000E+01
  -8.302  0.0000E+00  0.6000E+01
  -8.292  0.0000E+00  0.6000E+01
  -8.282  0.0000E+00  0.6000E+01
  -8.272  0.0000E+00  0.6000E+01
  -8.262  0.0000E+00  0.6000E+01
  -8.252  0.0000E+00  0.6000E+01
  -8.242  0.0000E+00  0.6000E+01
  -8.232  0.0000E+00  0.6000E+01
  -8.222  0.0000E+00  0.6000E+01
  -8.212  0.0000E+00  0.6000E+01
  -8.202  0.0000E+00  0.6000E+01
  -8.192  0.0000E+00  0.6000E+01
  -8.182  0.0000E+00  0.6000E+01
  -8.172  0.0000E+00  0.6000E+01
  -8.162  0.0000E+00  0.6000E+01
  -8.152  0.0000E+00  0.6000E+01
  -8.142  0.0000E+00  0.6000E+01
  -8.132  0.0000E+00  0.6000E+01
  -8.122  0.0000E+00  0.6000E+01
  -8.112  0.0000E+00  0.6000E+01
  -8.102  0.0000E+00  0.6000E+01
  -8.092  0.0000E+00  0.6000E+01
  -8.082  0.0000E+00  0.6000E+01
  -8.072  0.0000E+00  0.6000E+01
  -8.062  0.0000E+00  0.6000E+01
  -8.052  0.0000E+00  0.6000E+01
  -8.042  0.0000E+00  0.6000E+01
  -8.032  0.0000E+00  0.6000E+01
  -8.022  0.0000E+00  0.6000E+01
  -8.012  0.0000E+00  0.6000E+01
  -8.002  0.0000E+00  0.6000E+01
  -7.992  0.0000E+00  0.6000E+01
  -7.982  0.0000E+00  0.6000E+01
  -7.972  0.0000E+00  0.6000E+01
  -7.962  0.0000E+00  0.6000E+01
  -7.952  0.0000E+00  0.6000E+01
  -7.942  0.0000E+00  0.6000E+01
  -7.932  0.0000E+00  0.6000E+01
  -7.922  0.0000E+00  0.6000E+01
  -7.912  0.0000E+00  0.6000E+01
  -7.902  0.0000E+00  0.6000E+01
  -7.892  0.0000E+00  0.6000E+01
  -7.882  0.0000E+00  0.6000E+01
  -7.872  0.0000E+00  0.6000E+01
  -7.862  0.0000E+00  0.6000E+01
  -7.852  0.0000E+00  0.6000E+01
  -7.842  0.2216E-02  0.6000E+01
  -7.832  0.1413E-01  0.6000E+01
  -7.822  0.3635E-01  0.6000E+01
  -7.812  0.6887E-01  0.6001E+01
  -7.802  0.1117E+00  0.6002E+01
  -7.792  0.1648E+00  0.6003E+01
  -7.782  0.2283E+00  0.6005E+01
  -7.772  0.2958E+00  0.6008E+01
  -7.762  0.3548E+00  0.6011E+01
  -7.752  0.4050E+00  0.6015E+01
  -7.742  0.4465E+00  0.6019E+01
  -7.732  0.4792E+00  0.6024E+01
  -7.722  0.5031E+00  0.6029E+01
  -7.712  0.5185E+00  0.6034E+01
  -7.702  0.5333E+00  0.6039E+01
  -7.692  0.5514E+00  0.6044E+01
  -7.682  0.5729E+00  0.6050E+01
  -7.672  0.5977E+00  0.6056E+01
  -7.662  0.6259E+00  0.6062E+01
  -7.652  0.6574E+00  0.6068E+01
  -7.642  0.6915E+00  0.6075E+01
  -7.632  0.7264E+00  0.6082E+01
  -7.622  0.7620E+00  0.6090E+01
  -7.612  0.7983E+00  0.6097E+01
  -7.602  0.8349E+00  0.6106E+01
  -7.592  0.8710E+00  0.6114E+01
  -7.582  0.9065E+00  0.6123E+01
  -7.572  0.9416E+00  0.6132E+01
  -7.562  0.9761E+00  0.6142E+01
  -7.552  0.1010E+01  0.6152E+01
  -7.542  0.1044E+01  0.6162E+01
  -7.532  0.1080E+01  0.6173E+01
  -7.522  0.1116E+01  0.6184E+01
  -7.512  0.1154E+01  0.6195E+01
  -7.502  0.1193E+01  0.6207E+01
  -7.492  0.1232E+01  0.6219E+01
  -7.482  0.1273E+01  0.6231E+01
  -7.472  0.1313E+01  0.6244E+01
  -7.462  0.1355E+01  0.6258E+01
  -7.452  0.1396E+01  0.6271E+01
  -7.442  0.1439E+01  0.6286E+01
  -7.432  0.1481E+01  0.6300E+01
  -7.422  0.1526E+01  0.6315E+01
  -7.412  0.1584E+01  0.6331E+01
  -7.402  0.1659E+01  0.6347E+01
  -7.392  0.1751E+01  0.6364E+01
  -7.382  0.1860E+01  0.6382E+01
  -7.372  0.1986E+01  0.6401E+01
  -7.362  0.2129E+01  0.6422E+01
  -7.352  0.2278E+01  0.6444E+01
  -7.342  0.2423E+01  0.6467E+01
  -7.332  0.2545E+01  0.6492E+01
  -7.322  0.2634E+01  0.6518E+01
  -7.312  0.2689E+01  0.6545E+01
  -7.302  0.2711E+01  0.6572E+01
  -7.292  0.2702E+01  0.6599E+01
  -7.282  0.2665E+01  0.6626E+01
  -7.272  0.2619E+01  0.6652E+01
  -7.262  0.2583E+01  0.6678E+01
  -7.252  0.2557E+01  0.6704E+01
  -7.242  0.2541E+01  0.6729E+01
  -7.232  0.2536E+01  0.6755E+01
  -7.222  0.2540E+01  0.6780E+01
  -7.212  0.2550E+01  0.6806E+01
  -7.202  0.2559E+01  0.6831E+01
  -7.192  0.2566E+01  0.6857E+01
  -7.182  0.2570E+01  0.6882E+01
  -7.172  0.2570E+01  0.6908E+01
  -7.162  0.2568E+01  0.6934E+01
  -7.152  0.2563E+01  0.6959E+01
  -7.142  0.2554E+01  0.6985E+01
  -7.132  0.2543E+01  0.7011E+01
  -7.122  0.2530E+01  0.7036E+01
  -7.112  0.2516E+01  0.7061E+01
  -7.102  0.2502E+01  0.7086E+01
  -7.092  0.2489E+01  0.7111E+01
  -7.082  0.2477E+01  0.7136E+01
  -7.072  0.2465E+01  0.7161E+01
  -7.062  0.2453E+01  0.7185E+01
  -7.052  0.2441E+01  0.7210E+01
  -7.042  0.2428E+01  0.7234E+01
  -7.032  0.2413E+01  0.7258E+01
  -7.022  0.2398E+01  0.7282E+01
  -7.012  0.2386E+01  0.7306E+01
  -7.002  0.2380E+01  0.7330E+01
  -6.992  0.2380E+01  0.7354E+01
  -6.982  0.2386E+01  0.7378E+01
  -6.972  0.2398E+01  0.7402E+01
  -6.962  0.2415E+01  0.7426E+01
  -6.952  0.2436E+01  0.7450E+01
  -6.942  0.2459E+01  0.7474E+01
  -6.932  0.2469E+01  0.7499E+01
  -6.922  0.2455E+01  0.7524E+01
  -6.912  0.2417E+01  0.7548E+01
  -6.902  0.2356E+01  0.7572E+01
  -6.892  0.2271E+01  0.7595E+01
  -6.882  0.2162E+01  0.7617E+01
  -6.872  0.2037E+01  0.7638E+01
  -6.862  0.1904E+01  0.7658E+01
  -6.852  0.1772E+01  0.7676E+01
  -6.842  0.1654E+01  0.7694E+01
  -6.832  0.1552E+01  0.7710E+01
  -6.822  0.1465E+01  0.7725E+01
  -6.812  0.1393E+01  0.7739E+01
  -6.802  0.1336E+01  0.7753E+01
  -6.792  0.1289E+01  0.7766E+01
  -6.782  0.1242E+01  0.7778E+01
  -6.772  0.1196E+01  0.7791E+01
  -6.762  0.1151E+01  0.7802E+01
  -6.752  0.1106E+01  0.7814E+01
  -6.742  0.1062E+01  0.7824E+01
  -6.732  0.1018E+01  0.7835E+01
  -6.722  0.9741E+00  0.7845E+01
  -6.712  0.9323E+00  0.7854E+01
  -6.702  0.8920E+00  0.7863E+01
  -6.692  0.8534E+00  0.7872E+01
  -6.682  0.8164E+00  0.7880E+01
  -6.672  0.7809E+00  0.7888E+01
  -6.662  0.7470E+00  0.7896E+01
  -6.652  0.7148E+00  0.7903E+01
  -6.642  0.6841E+00  0.7910E+01
  -6.632  0.6546E+00  0.7917E+01
  -6.622  0.6258E+00  0.7923E+01
  -6.612  0.5980E+00  0.7930E+01
  -6.602  0.5717E+00  0.7935E+01
  -6.592  0.5468E+00  0.7941E+01
  -6.582  0.5233E+00  0.7946E+01
  -6.572  0.5013E+00  0.7951E+01
  -6.562  0.4807E+00  0.7956E+01
  -6.552  0.4615E+00  0.7961E+01
  -6.542  0.4438E+00  0.7966E+01
  -6.532  0.4257E+00  0.7970E+01
  -6.522  0.4045E+00  0.7974E+01
  -6.512  0.3803E+00  0.7978E+01
  -6.502  0.3531E+00  0.7982E+01
  -6.492  0.3228E+00  0.7985E+01
  -6.482  0.2895E+00  0.7988E+01
  -6.472  0.2532E+00  0.7991E+01
  -6.462  0.2138E+00  0.7993E+01
  -6.452  0.1719E+00  0.7995E+01
  -6.442  0.1336E+00  0.7997E+01
  -6.432  0.1001E+00  0.7998E+01
  -6.422  0.7142E-01  0.7999E+01
  -6.412  0.4758E-01  0.7999E+01
  -6.402  0.2855E-01  0.8000E+01
  -6.392  0.1436E-01  0.8000E+01
  -6.382  0.4999E-02  0.8000E+01
  -6.372  0.4652E-03  0.8000E+01
  -6.362  0.0000E+00  0.8000E+01
  -6.352  0.0000E+00  0.8000E+01
  -6.342  0.0000E+00  0.8000E+01
  -6.332  0.0000E+00  0.8000E+01
  -6.322  0.0000E+00  0.8000E+01
  -6.312  0.0000E+00  0.8000E+01
  -6.302  0.0000E+00  0.8000E+01
  -6.292  0.0000E+00  0.8000E+01
  -6.282  0.0000E+00  0.8000E+01
  -6.272  0.0000E+00  0.8000E+01
  -6.262  0.0000E+00  0.8000E+01
  -6.252  0.0000E+00  0.8000E+01
  -6.242  0.0000E+00  0.8000E+01
  -6.232  0.0000E+00  0.8000E+01
  -6.222  0.0000E+00  0.8000E+01
  -6.212  0.0000E+00  0.8000E+01
  -6.202  0.0000E+00  0.8000E+01
  -6.192  0.0000E+00  0.8000E+01
  -6.182  0.0000E+00  0.8000E+01
  -6.172  0.0000E+00  0.8000E+01
  -6.162  0.0000E+00  0.8000E+01
  -6.152  0.0000E+00  0.8000E+01
  -6.142  0.0000E+00  0.8000E+01
  -6.132  0.0000E+00  0.8000E+01
  -6.122  0.0000E+00  0.8000E+01
  -6.112  0.0000E+00  0.8000E+01
  -6.102  0.0000E+00  0.8000E+01
  -6.092  0.0000E+00  0.8000E+01
  -6.082  0.0000E+00  0.8000E+01
  -6.072  0.0000E+00  0.8000E+01
  -6.062  0.0000E+00  0.8000E+01
  -6.052  0.0000E+00  0.8000E+01
  -6.042  0.0000E+00  0.8000E+01
  -6.032  0.0000E+00  0.8000E+01
  -6.022  0.0000E+00  0.8000E+01
  -6.012  0.0000E+00  0.8000E+01
  -6.002  0.0000E+00  0.8000E+01
  -5.992  0.0000E+00  0.8000E+01
  -5.982  0.0000E+00  0.8000E+01
  -5.972  0.0000E+00  0.8000E+01
  -5.962  0.0000E+00  0.8000E+01
  -5.952  0.0000E+00  0.8000E+01
  -5.942  0.0000E+00  0.8000E+01
  -5.932  0.0000E+00  0.8000E+01
  -5.922  0.0000E+00  0.8000E+01
  -5.912  0.0000E+00  0.8000E+01
  -5.902  0.0000E+00  0.8000E+01
  -5.892  0.0000E+00  0.8000E+01
  -5.882  0.0000E+00  0.8000E+01
  -5.872  0.0000E+00  0.8000E+01
  -5.862  0.0000E+00  0.8000E+01
  -5.852  0.0000E+00  0.8000E+01
  -5.842  0.0000E+00  0.8000E+01
  -5.832  0.0000E+00  0.8000E+01
  -5.822  0.0000E+00  0.8000E+01
  -5.812  0.0000E+00  0.8000E+01
  -5.802  0.0000E+00  0.8000E+01
  -5.792  0.0000E+00  0.8000E+01
  -5.782  0.0000E+00  0.8000E+01
  -5.772  0.0000E+00  0.8000E+01
  -5.762  0.0000E+00  0.8000E+01
  -5.752  0.0000E+00  0.8000E+01
  -5.742  0.0000E+00  0.8000E+01
  -5.732  0.0000E+00  0.8000E+01
  -5.722  0.0000E+00  0.8000E+01
  -5.712  0.0000E+00  0.8000E+01
  -5.702  0.0000E+00  0.8000E+01
  -5.692  0.0000E+00  0.8000E+01
  -5.682  0.0000E+00  0.8000E+01
  -5.672  0.0000E+00  0.8000E+01
  -5.662  0.0000E+00  0.8000E+01
  -5.652  0.0000E+00  0.8000E+01
  -5.642  0.0000E+00  0.8000E+01
  -5.632  0.0000E+00  0.8000E+01
  -5.622  0.0000E+00  0.8000E+01
  -5.612  0.0000E+00  0.8000E+01
  -5.602  0.0000E+00  0.8000E+01
  -5.592  0.0000E+00  0.8000E+01
  -5.582  0.0000E+00  0.8000E+01
  -5.572  0.0000E+00  0.8000E+01
  -5.562  0.0000E+00  0.8000E+01
  -5.552  0.0000E+00  0.8000E+01
  -5.542  0.0000E+00  0.8000E+01
  -5.532  0.0000E+00  0.8000E+01
  -5.522  0.0000E+00  0.8000E+01
  -5.512  0.0000E+00  0.8000E+01
  -5.502  0.0000E+00  0.8000E+01
  -5.492  0.0000E+00  0.8000E+01
  -5.482  0.0000E+00  0.8000E+01
  -5.472  0.0000E+00  0.8000E+01
  -5.462  0.0000E+00  0.8000E+01
  -5.452  0.0000E+00  0.8000E+01
  -5.442  0.0000E+00  0.8000E+01
  -5.432  0.0000E+00  0.8000E+01
  -5.422  0.0000E+00  0.8000E+01
  -5.412  0.0000E+00  0.8000E+01
  -5.402  0.0000E+00  0.8000E+01
  -5.392  0.0000E+00  0.8000E+01
